wavenumber(cm-1),absorption_coefficient(none),err,quality
10.0039,3.6728,0,
10.1245,3.7516,0,
10.2450,3.8314,0,
10.3655,3.9122,0,
10.4861,3.9939,0,
10.6066,4.0765,0,
10.7271,4.1599,0,
10.8476,4.2442,0,
10.9682,4.3293,0,
11.0887,4.4154,0,
11.2092,4.5025,0,
11.3298,4.5908,0,
11.4503,4.6802,0,
11.5708,4.7708,0,
11.6913,4.8627,0,
11.8119,4.9558,0,
11.9324,5.0503,0,
12.0529,5.1460,0,
12.1735,5.2431,0,
12.2940,5.3415,0,
12.4145,5.4412,0,
12.5351,5.5423,0,
12.6556,5.6447,0,
12.7761,5.7483,0,
12.8966,5.8532,0,
13.0172,5.9594,0,
13.1377,6.0667,0,
13.2582,6.1753,0,
13.3788,6.2852,0,
13.4993,6.3963,0,
13.6198,6.5087,0,
13.7403,6.6224,0,
13.8609,6.7374,0,
13.9814,6.8536,0,
14.1019,6.9712,0,
14.2225,7.0899,0,
14.3430,7.2099,0,
14.4635,7.3310,0,
14.5840,7.4534,0,
14.7046,7.5770,0,
14.8251,7.7019,0,
14.9456,7.8280,0,
15.0662,7.9555,0,
15.1867,8.0841,0,
15.3072,8.2140,0,
15.4277,8.3450,0,
15.5483,8.4771,0,
15.6688,8.6105,0,
15.7893,8.7451,0,
15.9099,8.8810,0,
16.0304,9.0182,0,
16.1509,9.1569,0,
16.2715,9.2970,0,
16.3920,9.4386,0,
16.5125,9.5815,0,
16.6331,9.7259,0,
16.7536,9.8716,0,
16.8741,10.0188,0,
16.9946,10.1672,0,
17.1152,10.3169,0,
17.2357,10.4678,0,
17.3562,10.6198,0,
17.4767,10.7728,0,
17.5973,10.9266,0,
17.7178,11.0812,0,
17.8383,11.2363,0,
17.9589,11.3919,0,
18.0794,11.5553,0,
18.1999,11.7190,0,
18.3205,11.8829,0,
18.4410,12.0470,0,
18.5615,12.2116,0,
18.6821,12.3765,0,
18.8026,12.5419,0,
18.9231,12.7079,0,
19.0436,12.8745,0,
19.1642,13.0418,0,
19.2847,13.2099,0,
19.4052,13.3789,0,
19.5257,13.5488,0,
19.6463,13.7197,0,
19.7668,13.8916,0,
19.8873,14.0646,0,
20.0079,14.2385,0,
20.1284,14.4222,0,
20.2489,14.6118,0,
20.3695,14.8074,0,
20.4900,15.0090,0,
20.6105,15.2171,0,
20.7310,15.4318,0,
20.8516,15.6535,0,
20.9721,15.8825,0,
21.0926,16.1191,0,
21.2132,16.3635,0,
21.3337,16.6161,0,
21.4542,16.8773,0,
21.5748,17.1475,0,
21.6953,17.4272,0,
21.8158,17.7164,0,
21.9363,18.0151,0,
22.1792,18.3159,0,
22.4203,18.6263,0,
22.6614,18.9462,0,
22.9025,19.2756,0,
23.1435,19.6144,0,
23.3846,19.9625,0,
23.6257,20.3200,0,
23.8668,20.6866,0,
24.1078,21.0622,0,
24.3489,21.4471,0,
24.5900,21.8417,0,
24.8311,22.2463,0,
25.0722,22.6611,0,
25.3132,23.0867,0,
25.5543,23.5237,0,
25.7954,23.9725,0,
26.0365,24.4337,0,
26.2776,24.8989,0,
26.5186,25.3725,0,
26.7597,25.8553,0,
27.0008,26.3474,0,
27.2419,26.8488,0,
27.4829,27.3590,0,
27.7240,27.8776,0,
27.9651,28.4044,0,
28.2062,28.9390,0,
28.4473,29.4808,0,
28.6883,30.0289,0,
28.9294,30.5821,0,
29.1705,31.1395,0,
29.4116,31.7004,0,
29.6527,32.2646,0,
29.8937,32.8313,0,
30.1348,33.4002,0,
30.3759,33.9713,0,
30.6170,34.5447,0,
30.8580,35.1208,0,
31.0991,35.6997,0,
31.3402,36.2813,0,
31.5813,36.8657,0,
31.8224,37.4534,0,
32.0634,38.0451,0,
32.3045,38.6409,0,
32.5456,39.2409,0,
32.7867,39.8451,0,
33.0277,40.4535,0,
33.2688,41.0659,0,
33.5099,41.6818,0,
33.7510,42.3008,0,
33.9921,42.9226,0,
34.2331,43.5468,0,
34.4742,44.1729,0,
34.7153,44.8001,0,
34.9564,45.4274,0,
35.1975,46.0543,0,
35.4385,46.6807,0,
35.6796,47.3068,0,
35.9207,47.9322,0,
36.1618,48.5566,0,
36.4029,49.1801,0,
36.6439,49.8031,0,
36.8850,50.4266,0,
37.1261,51.0511,0,
37.3672,51.6771,0,
37.6082,52.3051,0,
37.8493,52.9364,0,
38.0904,53.5716,0,
38.3315,54.2112,0,
38.5726,54.8550,0,
38.8136,55.5030,0,
39.0547,56.1557,0,
39.2958,56.8135,0,
39.5369,57.4766,0,
39.7779,58.1444,0,
40.0190,58.8166,0,
40.2601,59.4929,0,
40.5012,60.1731,0,
40.7423,60.8568,0,
40.9833,61.5436,0,
41.2244,62.2531,0,
41.4655,62.9641,0,
41.7066,63.6767,0,
41.9477,64.3907,0,
42.1887,65.1057,0,
42.4298,65.8214,0,
42.6709,66.5385,0,
42.9120,67.2578,0,
43.1531,67.9795,0,
43.3941,68.7036,0,
43.6352,69.4299,0,
43.8763,70.1590,0,
44.1174,70.8917,0,
44.3584,71.6280,0,
44.5995,72.3676,0,
44.8406,73.1099,0,
45.0817,73.8546,0,
45.3227,74.6015,0,
45.5638,75.3494,0,
45.8049,76.0970,0,
46.0460,76.8437,0,
46.2871,77.6157,0,
46.5281,78.3917,0,
46.7692,79.1711,0,
47.0103,79.9527,0,
47.2514,80.7358,0,
47.4925,81.5203,0,
47.7335,82.3062,0,
47.9746,83.0933,0,
48.2157,83.8808,0,
48.4568,84.6682,0,
48.6979,85.4557,0,
48.9389,86.2437,0,
49.1800,87.0121,0,
49.4211,87.7816,0,
49.6622,88.5519,0,
49.9032,89.3231,0,
50.1443,90.0960,0,
50.3854,90.8705,0,
50.6265,91.6454,0,
50.8676,92.4199,0,
51.1086,93.1942,0,
51.3497,93.9687,0,
51.5908,94.7434,0,
51.8319,95.5176,0,
52.0729,96.2904,0,
52.3140,97.0623,0,
52.5551,97.8339,0,
52.7962,98.6058,0,
53.0373,99.3779,0,
53.2783,100.1500,0,
53.5194,100.9231,0,
53.7605,101.6984,0,
54.0016,102.4763,0,
54.2427,103.2302,0,
54.4837,103.9812,0,
54.7248,104.7297,0,
54.9659,105.4769,0,
55.2070,106.2234,0,
55.4481,106.9689,0,
55.6891,107.7130,0,
55.9302,108.4562,0,
56.1713,109.1996,0,
56.4124,109.9435,0,
56.6534,110.6876,0,
56.8945,111.4313,0,
57.1356,112.1746,0,
57.3767,112.9183,0,
57.6178,113.6626,0,
57.8588,114.4069,0,
58.0999,115.1502,0,
58.3410,115.8928,0,
58.5821,116.6354,0,
58.8231,117.3786,0,
59.0642,118.1221,0,
59.3053,118.8651,0,
59.5464,119.6076,0,
59.7875,120.3503,0,
60.0285,121.0939,0,
60.2696,121.8379,0,
60.5107,122.5815,0,
60.7518,123.3247,0,
60.9928,124.0680,0,
61.2339,124.8119,0,
61.4750,125.5563,0,
61.7161,126.3003,0,
61.9572,127.0439,0,
62.1983,127.7875,0,
62.4393,128.5319,0,
62.6804,129.2769,0,
62.9215,130.0214,0,
63.1626,130.7652,0,
63.4036,131.5089,0,
63.6447,132.2531,0,
63.8858,132.9976,0,
64.1269,133.7417,0,
64.3679,134.4851,0,
64.6090,135.2282,0,
64.8501,135.9718,0,
65.0912,136.7161,0,
65.3323,137.4606,0,
65.5734,138.2053,0,
65.8144,138.9505,0,
66.0555,139.6971,0,
66.2966,140.4450,0,
66.5377,141.1937,0,
66.7787,141.9425,0,
67.0198,142.6918,0,
67.2609,143.4418,0,
67.5020,144.1924,0,
67.7430,144.9424,0,
67.9841,145.6915,0,
68.2252,146.4398,0,
68.4663,147.1881,0,
68.7074,147.9365,0,
68.9484,148.6845,0,
69.1895,149.4320,0,
69.4306,150.1795,0,
69.6717,150.9282,0,
69.9128,151.6782,0,
70.1538,152.4293,0,
70.3949,153.1812,0,
70.6360,153.9345,0,
70.8771,154.6902,0,
71.1181,155.4484,0,
71.3592,156.2086,0,
71.6003,156.9701,0,
71.8414,157.7331,0,
72.0825,158.4979,0,
72.3235,159.2648,0,
72.5646,160.0329,0,
72.8057,160.8012,0,
73.0468,161.5695,0,
73.2879,162.3382,0,
73.5289,163.1079,0,
73.7700,163.8779,0,
74.0111,164.6478,0,
74.2522,165.4176,0,
74.4933,166.1882,0,
74.7343,166.9606,0,
74.9754,167.7347,0,
75.2165,168.5103,0,
75.4576,169.2876,0,
75.6986,170.0675,0,
75.9397,170.8504,0,
76.1808,171.6363,0,
76.4219,172.4245,0,
76.6630,173.2143,0,
76.9040,174.0057,0,
77.1451,174.7985,0,
77.3862,175.5919,0,
77.6273,176.3848,0,
77.8684,177.1762,0,
78.1094,177.9661,0,
78.3505,178.7542,0,
78.5916,179.5401,0,
78.8327,180.3230,0,
79.0737,181.1030,0,
79.3148,181.8805,0,
79.5559,182.6562,0,
79.7970,183.4300,0,
80.0380,184.2010,0,
80.2791,184.9694,0,
80.5202,185.7356,0,
80.7613,186.5001,0,
81.0024,187.2629,0,
81.2434,188.0234,0,
81.4845,188.7813,0,
81.7256,189.5372,0,
81.9667,190.2914,0,
82.2078,191.0434,0,
82.4488,191.7922,0,
82.6899,192.5371,0,
82.9310,193.2781,0,
83.1721,194.0157,0,
83.4132,194.7500,0,
83.6542,195.4803,0,
83.8953,196.2065,0,
84.1364,196.9290,0,
84.3775,197.6487,0,
84.6185,198.3664,0,
84.8596,199.0826,0,
85.1007,199.7974,0,
85.3418,200.5115,0,
85.5829,201.2260,0,
85.8239,201.9414,0,
86.0650,202.6579,0,
86.3061,203.3753,0,
86.5472,204.0937,0,
86.7883,204.8135,0,
87.0293,205.5348,0,
87.2704,206.2567,0,
87.5115,206.9785,0,
87.7526,207.6998,0,
87.9936,208.4208,0,
88.2347,209.1413,0,
88.4758,209.8606,0,
88.7169,210.5779,0,
88.9580,211.2932,0,
89.1990,212.0067,0,
89.4401,212.7189,0,
89.6812,213.4298,0,
89.9223,214.1396,0,
90.1633,214.8490,0,
90.4044,215.5593,0,
90.6455,216.2712,0,
90.8866,216.9849,0,
91.1277,217.7004,0,
91.3687,218.4185,0,
91.6098,219.1399,0,
91.8509,219.8649,0,
92.0920,220.5931,0,
92.3331,221.3234,0,
92.5741,222.0557,0,
92.8152,222.7897,0,
93.0563,223.5251,0,
93.2974,224.2604,0,
93.5384,224.9941,0,
93.7795,225.7253,0,
94.0206,226.4539,0,
94.2617,227.1800,0,
94.5028,227.9031,0,
94.7438,228.6226,0,
94.9849,229.3385,0,
95.2260,230.0510,0,
95.4671,230.7605,0,
95.7082,231.4669,0,
95.9492,232.1700,0,
96.1903,232.8701,0,
96.4314,233.5680,0,
96.6725,234.2645,0,
96.9136,234.9594,0,
97.1546,235.6522,0,
97.3957,236.3423,0,
97.6368,237.0299,0,
97.8779,237.7144,0,
98.1189,238.3950,0,
98.3600,239.0704,0,
98.6011,239.7399,0,
98.8422,240.4032,0,
99.0833,241.0602,0,
99.3243,241.7107,0,
99.5654,242.3541,0,
99.8065,242.9906,0,
100.0476,243.6211,0,
100.2887,244.2469,0,
100.5297,244.8688,0,
100.7708,245.4871,0,
101.0119,246.1030,0,
101.2530,246.7182,0,
101.4940,247.3339,0,
101.7351,247.9507,0,
101.9762,248.5685,0,
102.2173,249.1872,0,
102.4583,249.8071,0,
102.6994,250.4285,0,
102.9405,251.0504,0,
103.1816,251.6717,0,
103.4227,252.2918,0,
103.6637,252.9106,0,
103.9048,253.5281,0,
104.1459,254.1436,0,
104.3870,254.7560,0,
104.6281,255.3647,0,
104.8691,255.9699,0,
105.1102,256.5724,0,
105.3513,257.1726,0,
105.5924,257.7704,0,
105.8334,258.3665,0,
106.0745,258.9625,0,
106.3156,259.6087,0,
106.5567,260.2558,0,
106.7978,260.9035,0,
107.0388,261.5520,0,
107.2799,262.2016,0,
107.5210,262.8528,0,
107.7621,263.5051,0,
108.0032,264.1569,0,
108.2442,264.8069,0,
108.4853,265.4541,0,
108.7264,266.0981,0,
108.9675,266.7378,0,
109.2086,267.3720,0,
109.4496,267.9995,0,
109.6907,268.6205,0,
109.9318,269.2358,0,
110.1729,269.8458,0,
110.4139,270.4499,0,
110.6550,271.0479,0,
110.8961,271.6408,0,
111.1372,272.2303,0,
111.3783,272.8176,0,
111.6193,273.4013,0,
111.8604,273.9810,0,
112.1015,274.5573,0,
112.3426,275.1315,0,
112.5837,275.7041,0,
112.8247,276.2743,0,
113.0658,276.8407,0,
113.3069,277.4029,0,
113.5480,277.9616,0,
113.7890,278.5167,0,
114.0301,279.0669,0,
114.2712,279.5615,0,
114.5123,280.0504,0,
114.7533,280.5343,0,
114.9944,281.0135,0,
115.2355,281.4866,0,
115.4766,281.9520,0,
115.7177,282.4099,0,
115.9587,282.8619,0,
116.1998,283.3095,0,
116.4409,283.7527,0,
116.6820,284.1912,0,
116.9231,284.6257,0,
117.1641,285.0578,0,
117.4052,285.4889,0,
117.6463,285.9189,0,
117.8874,286.3466,0,
118.1285,286.7717,0,
118.3695,287.1952,0,
118.6106,287.6182,0,
118.8517,288.0404,0,
119.0928,288.4604,0,
119.3338,288.8779,0,
119.5749,289.2949,0,
119.8160,289.7127,0,
120.0571,290.1306,0,
120.2982,290.5473,0,
120.5392,290.9624,0,
120.7803,291.3773,0,
121.0214,291.7935,0,
121.2625,292.2108,0,
121.5036,292.6277,0,
121.7446,293.0433,0,
121.9857,293.4583,0,
122.2268,293.8738,0,
122.4679,294.2889,0,
122.7089,294.7021,0,
122.9500,295.1122,0,
123.1911,295.5202,0,
123.4322,295.9276,0,
123.6733,296.3347,0,
123.9143,296.7405,0,
124.1554,297.1441,0,
124.3965,297.5465,0,
124.6376,297.9490,0,
124.8786,298.3515,0,
125.1197,298.7528,0,
125.3608,299.1515,0,
125.6019,299.5483,0,
125.8430,299.9444,0,
126.0840,300.3403,0,
126.3251,300.7345,0,
126.5662,301.1261,0,
126.8073,301.5155,0,
127.0484,301.9039,0,
127.2894,302.2915,0,
127.5305,302.6772,0,
127.7716,303.0601,0,
128.0127,303.4406,0,
128.2537,303.8203,0,
128.4948,304.1998,0,
128.7359,304.5782,0,
128.9770,304.9548,0,
129.2181,305.3300,0,
129.4591,305.7053,0,
129.7002,306.0814,0,
129.9413,306.4574,0,
130.1824,306.8327,0,
130.4235,307.2080,0,
130.6645,307.5851,0,
130.9056,307.9653,0,
131.1467,308.3481,0,
131.3878,308.7330,0,
131.6288,309.1203,0,
131.8699,309.5114,0,
132.1110,309.9067,0,
132.3521,310.3046,0,
132.5932,310.7035,0,
132.8342,311.1027,0,
133.0753,311.5032,0,
133.3164,311.9053,0,
133.5575,312.3080,0,
133.7986,312.7100,0,
134.0396,313.1114,0,
134.2807,313.5133,0,
134.5218,313.9169,0,
134.7629,314.3214,0,
135.0040,314.7258,0,
135.2450,315.1300,0,
135.4861,315.5351,0,
135.7272,315.9420,0,
135.9683,316.3504,0,
136.2093,316.7590,0,
136.4504,317.1676,0,
136.6915,317.5774,0,
136.9326,317.9891,0,
137.1737,318.4024,0,
137.4147,318.8157,0,
137.6558,319.2285,0,
137.8969,319.6416,0,
138.1380,320.0559,0,
138.3790,320.4709,0,
138.6201,320.8854,0,
138.8612,321.2990,0,
139.1023,321.7125,0,
139.3434,322.1268,0,
139.5844,322.5412,0,
139.8255,322.9541,0,
140.0666,323.3648,0,
140.3077,323.7738,0,
140.5488,324.1820,0,
140.7898,324.5895,0,
141.0309,324.9952,0,
141.2720,325.3989,0,
141.5131,325.8020,0,
141.7541,326.2059,0,
141.9952,326.6109,0,
142.2363,327.0159,0,
142.4774,327.4204,0,
142.7185,327.8249,0,
142.9595,328.2304,0,
143.2006,328.6369,0,
143.4417,329.0432,0,
143.6828,329.4485,0,
143.9238,329.8535,0,
144.1649,330.2596,0,
144.4060,330.6670,0,
144.6471,331.0749,0,
144.8882,331.4823,0,
145.1292,331.8897,0,
145.3703,332.2982,0,
145.6114,332.7076,0,
145.8525,333.1171,0,
146.0936,333.5253,0,
146.3346,333.9327,0,
146.5757,334.3401,0,
146.8168,334.7477,0,
147.0579,335.1540,0,
147.2989,335.5578,0,
147.5400,335.9591,0,
147.7811,336.3587,0,
148.0222,336.7570,0,
148.2633,337.1533,0,
148.5043,337.5469,0,
148.7454,337.9381,0,
148.9865,338.3284,0,
149.2276,338.7186,0,
149.4686,339.1080,0,
149.7097,339.4959,0,
149.9508,339.8820,0,
150.1919,340.2672,0,
150.4330,340.6517,0,
150.6740,341.0348,0,
150.9151,341.4153,0,
151.1562,341.7933,0,
151.3973,342.1701,0,
151.6384,342.5465,0,
151.8794,342.9222,0,
152.1205,343.2966,0,
152.3616,343.6697,0,
152.6027,344.0425,0,
152.8438,344.4156,0,
153.0848,344.7881,0,
153.3259,345.1592,0,
153.5670,345.5285,0,
153.8081,345.8972,0,
154.0491,346.2659,0,
154.2902,346.6343,0,
154.5313,347.0015,0,
154.7724,347.3676,0,
155.0135,347.7336,0,
155.2545,348.1005,0,
155.4956,348.4680,0,
155.7367,348.8352,0,
155.9778,349.2019,0,
156.2189,349.5691,0,
156.4599,349.9375,0,
156.7010,350.3068,0,
156.9421,350.6755,0,
157.1832,351.0430,0,
157.4242,351.4095,0,
157.6653,351.7754,0,
157.9064,352.1400,0,
158.1475,352.5016,0,
158.3886,352.8595,0,
158.6296,353.2142,0,
158.8707,353.5665,0,
159.1118,353.9164,0,
159.3529,354.2630,0,
159.5940,354.6057,0,
159.8350,354.9452,0,
160.0761,355.2822,0,
160.3172,355.6162,0,
160.5583,355.9463,0,
160.7993,356.2720,0,
161.0404,356.5940,0,
161.2815,356.9134,0,
161.5226,357.2309,0,
161.7637,357.5462,0,
162.0047,357.8594,0,
162.2458,358.1718,0,
162.4869,358.4847,0,
162.7280,358.7987,0,
162.9691,359.1131,0,
163.2101,359.4275,0,
163.4512,359.7423,0,
163.6923,360.0585,0,
163.9334,360.3760,0,
164.1744,360.6940,0,
164.4155,361.0119,0,
164.6566,361.3302,0,
164.8977,361.6499,0,
165.1388,361.9710,0,
165.3798,362.2928,0,
165.6209,362.6145,0,
165.8620,362.9366,0,
166.1031,363.2601,0,
166.3442,363.5857,0,
166.5852,363.9128,0,
166.8263,364.2410,0,
167.0674,364.5708,0,
167.3085,364.9035,0,
167.5495,365.2396,0,
167.7906,365.5781,0,
168.0317,365.9183,0,
168.2728,366.2600,0,
168.5138,366.6042,0,
168.7549,366.9513,0,
168.9960,367.3009,0,
169.2371,367.6522,0,
169.4782,368.0053,0,
169.7192,368.3608,0,
169.9603,368.7193,0,
170.2014,369.0795,0,
170.4425,369.4400,0,
170.6836,369.8000,0,
170.9246,370.1597,0,
171.1657,370.5191,0,
171.4068,370.8774,0,
171.6479,371.2334,0,
171.8889,371.5873,0,
172.1300,371.9400,0,
172.3711,372.2924,0,
172.6122,372.6443,0,
172.8533,372.9952,0,
173.0943,373.3452,0,
173.3354,373.6951,0,
173.5765,374.0459,0,
173.8176,374.3976,0,
174.0587,374.7495,0,
174.2997,375.1016,0,
174.5408,375.4548,0,
174.7819,375.8097,0,
175.0230,376.1659,0,
175.2640,376.5222,0,
175.5051,376.8782,0,
175.7462,377.2343,0,
175.9873,377.5912,0,
176.2284,377.9484,0,
176.4694,378.3046,0,
176.7105,378.6593,0,
176.9516,379.0129,0,
177.1927,379.3662,0,
177.4338,379.7189,0,
177.6748,380.0698,0,
177.9159,380.4184,0,
178.1570,380.7652,0,
178.3981,381.1109,0,
178.6392,381.4556,0,
178.8802,381.7984,0,
179.1213,382.1390,0,
179.3624,382.4783,0,
179.6035,382.8176,0,
179.8445,383.1575,0,
180.0856,383.4975,0,
180.3267,383.8371,0,
180.5678,384.1768,0,
180.8089,384.5173,0,
181.0499,384.8585,0,
181.2910,385.1995,0,
181.5321,385.5394,0,
181.7732,385.8782,0,
182.0143,386.2166,0,
182.2553,386.5547,0,
182.4964,386.8917,0,
182.7375,387.2267,0,
182.9786,387.5597,0,
183.2196,387.8915,0,
183.4607,388.2217,0,
183.7018,388.5491,0,
183.9429,388.8728,0,
184.1840,389.1927,0,
184.4250,389.5097,0,
184.6661,389.8240,0,
184.9072,390.1351,0,
185.1483,390.4424,0,
185.3894,390.7464,0,
185.6304,391.0479,0,
185.8715,391.3475,0,
186.1126,391.6449,0,
186.3537,391.9399,0,
186.5947,392.2332,0,
186.8358,392.5263,0,
187.0769,392.8204,0,
187.3180,393.1154,0,
187.5591,393.4107,0,
187.8001,393.7064,0,
188.0412,394.0031,0,
188.2823,394.3010,0,
188.5234,394.5990,0,
188.7645,394.8958,0,
189.0055,395.1911,0,
189.2466,395.4852,0,
189.4877,395.7787,0,
189.7288,396.0709,0,
189.9698,396.3610,0,
190.2109,396.6490,0,
190.4520,396.9360,0,
190.6931,397.2227,0,
190.9341,397.5090,0,
191.1752,397.7942,0,
191.4163,398.0786,0,
191.6574,398.3634,0,
191.8985,398.6497,0,
192.1396,398.9377,0,
192.3806,399.2274,0,
192.6217,399.5191,0,
192.8628,399.8136,0,
193.1039,400.1119,0,
193.3449,400.4137,0,
193.5860,400.7181,0,
193.8271,401.0245,0,
194.0682,401.3331,0,
194.3092,401.6441,0,
194.5503,401.9568,0,
194.7914,402.2699,0,
195.0325,402.5821,0,
195.2736,402.8938,0,
195.5146,403.2051,0,
195.7557,403.5157,0,
195.9968,403.8245,0,
196.2379,404.1310,0,
196.4790,404.4361,0,
196.7200,404.7408,0,
196.9611,405.0455,0,
197.2022,405.3499,0,
197.4433,405.6541,0,
197.6843,405.9592,0,
197.9254,406.2661,0,
198.1665,406.5753,0,
198.4076,406.8858,0,
198.6487,407.1970,0,
198.8897,407.5091,0,
199.1308,407.8226,0,
199.3719,408.1376,0,
199.6130,408.4533,0,
199.8541,408.7690,0,
200.0951,409.0855,0,
200.3362,409.4036,0,
200.5773,409.7236,0,
200.8184,410.0447,0,
201.0594,410.3662,0,
201.3005,410.6884,0,
201.5416,411.0120,0,
201.7827,411.3372,0,
202.0238,411.6634,0,
202.2648,411.9899,0,
202.5059,412.3169,0,
202.7470,412.6452,0,
202.9881,412.9752,0,
203.2292,413.3063,0,
203.4702,413.6374,0,
203.7113,413.9683,0,
203.9524,414.2996,0,
204.1935,414.6313,0,
204.4346,414.9625,0,
204.6756,415.2925,0,
204.9167,415.6215,0,
205.1578,415.9504,0,
205.3989,416.2798,0,
205.6399,416.6093,0,
205.8810,416.9382,0,
206.1221,417.2667,0,
206.3632,417.5955,0,
206.6043,417.9255,0,
206.8453,418.2566,0,
207.0864,418.5881,0,
207.3275,418.9202,0,
207.5686,419.2538,0,
207.8097,419.5891,0,
208.0507,419.9254,0,
208.2918,420.2614,0,
208.5329,420.5963,0,
208.7740,420.9301,0,
209.0150,421.2625,0,
209.2561,421.5924,0,
209.4972,421.9185,0,
209.7383,422.2401,0,
209.9794,422.5575,0,
210.2204,422.8715,0,
210.4615,423.1819,0,
210.7026,423.4881,0,
210.9437,423.7901,0,
211.1847,424.0888,0,
211.4258,424.3853,0,
211.6669,424.6798,0,
211.9080,424.9719,0,
212.1491,425.2618,0,
212.3901,425.5503,0,
212.6312,425.8387,0,
212.8723,426.1268,0,
213.1134,426.4141,0,
213.3545,426.7004,0,
213.5955,426.9862,0,
213.8366,427.2721,0,
214.0777,427.5582,0,
214.3188,427.8436,0,
214.5598,428.1280,0,
214.8009,428.4116,0,
215.0420,428.6953,0,
215.2831,428.9792,0,
215.5242,429.2628,0,
215.7652,429.5457,0,
216.0063,429.8283,0,
216.2474,429.3144,0,
216.4885,428.8713,0,
216.7295,428.4988,0,
216.9706,428.1969,0,
217.2117,427.9664,0,
217.4528,427.8082,0,
217.6939,427.7228,0,
217.9349,427.7102,0,
218.1760,427.7775,0,
218.4171,427.9249,0,
218.6582,428.1529,0,
218.8993,428.4614,0,
219.1403,428.7989,0,
219.3814,429.1644,0,
219.6225,429.5580,0,
219.8636,429.9798,0,
220.1046,430.3827,0,
220.3457,430.7658,0,
220.5868,431.1284,0,
220.8279,431.4705,0,
221.0690,431.7976,0,
221.3100,432.1097,0,
221.5511,432.4060,0,
221.7922,432.6858,0,
222.0333,432.9903,0,
222.2743,433.3197,0,
222.5154,433.6745,0,
222.7565,434.0543,0,
222.9976,434.4775,0,
223.2387,434.9440,0,
223.4797,435.4547,0,
223.7208,436.0099,0,
223.9619,436.5618,0,
224.2030,437.9073,0,
224.4441,439.1791,0,
224.6851,440.3777,0,
224.9262,441.4375,0,
225.1673,442.3584,0,
225.4084,443.1400,0,
225.6495,443.7823,0,
225.8905,444.2792,0,
226.1316,444.6236,0,
226.3727,444.8150,0,
226.6138,444.8529,0,
226.8548,444.7885,0,
227.0959,444.6729,0,
227.3370,444.5064,0,
227.5781,444.2890,0,
227.8192,444.0787,0,
228.0602,443.9229,0,
228.3013,443.8221,0,
228.5424,443.7767,0,
228.7835,443.7998,0,
229.0246,443.8859,0,
229.2656,444.0348,0,
229.5067,444.2469,0,
229.7478,444.4744,0,
229.9889,444.6763,0,
230.2299,444.8520,0,
230.4710,445.0015,0,
230.7121,445.0765,0,
230.9532,445.0585,0,
231.1943,444.9474,0,
231.4353,444.7427,0,
231.6764,444.4540,0,
231.9175,444.1293,0,
232.1586,443.7686,0,
232.3997,443.3718,0,
232.6407,442.9932,0,
232.8818,442.6984,0,
233.1229,442.4877,0,
233.3640,442.3616,0,
233.6050,442.3702,0,
233.8461,442.5195,0,
234.0872,442.8095,0,
234.3283,443.2404,0,
234.5694,443.8073,0,
234.8104,444.4591,0,
