wavenumber(cm-1),absorption_coefficient(none),err,quality
10.0039,0.6083,0,
10.1245,0.6247,0,
10.2450,0.6408,0,
10.3655,0.6565,0,
10.4861,0.6720,0,
10.6066,0.6874,0,
10.7271,0.7031,0,
10.8476,0.7194,0,
10.9682,0.7366,0,
11.0887,0.7546,0,
11.2092,0.7737,0,
11.3298,0.7933,0,
11.4503,0.8125,0,
11.5708,0.8308,0,
11.6913,0.8481,0,
11.8119,0.8646,0,
11.9324,0.8805,0,
12.0529,0.8962,0,
12.1735,0.9120,0,
12.2940,0.9277,0,
12.4145,0.9429,0,
12.5351,0.9573,0,
12.6556,0.9707,0,
12.7761,0.9836,0,
12.8966,0.9963,0,
13.0172,1.0096,0,
13.1377,1.0240,0,
13.2582,1.0400,0,
13.3788,1.0577,0,
13.4993,1.0768,0,
13.6198,1.0974,0,
13.7403,1.1193,0,
13.8609,1.1426,0,
13.9814,1.1672,0,
14.1019,1.1934,0,
14.2225,1.2214,0,
14.3430,1.2512,0,
14.4635,1.2828,0,
14.5840,1.3160,0,
14.7046,1.3501,0,
14.8251,1.3845,0,
14.9456,1.4187,0,
15.0662,1.4526,0,
15.1867,1.4864,0,
15.3072,1.5203,0,
15.4277,1.5549,0,
15.5483,1.5900,0,
15.6688,1.6255,0,
15.7893,1.6607,0,
15.9099,1.6951,0,
16.0304,1.7284,0,
16.1509,1.7610,0,
16.2715,1.7931,0,
16.3920,1.8254,0,
16.5125,1.8582,0,
16.6331,1.8915,0,
16.7536,1.9251,0,
16.8741,1.9591,0,
16.9946,1.9933,0,
17.1152,2.0279,0,
17.2357,2.0633,0,
17.3562,2.1000,0,
17.4767,2.1386,0,
17.5973,2.1795,0,
17.7178,2.2230,0,
17.8383,2.2690,0,
17.9589,2.3168,0,
18.0794,2.3660,0,
18.1999,2.4160,0,
18.3205,2.4663,0,
18.4410,2.5169,0,
18.5615,2.5677,0,
18.6821,2.6187,0,
18.8026,2.6694,0,
18.9231,2.7193,0,
19.0436,2.7678,0,
19.1642,2.8143,0,
19.2847,2.8587,0,
19.4052,2.9012,0,
19.5257,2.9425,0,
19.6463,2.9832,0,
19.7668,3.0239,0,
19.8873,3.0650,0,
20.0079,3.1067,0,
20.1284,3.1489,0,
20.2489,3.1916,0,
20.3695,3.2353,0,
20.4900,3.2803,0,
20.6105,3.3270,0,
20.7310,3.3756,0,
20.8516,3.4262,0,
20.9721,3.4787,0,
21.0926,3.5330,0,
21.2132,3.5888,0,
21.3337,3.6460,0,
21.4542,3.7041,0,
21.5748,3.7633,0,
21.6953,3.8237,0,
21.8158,3.8855,0,
21.9363,3.9493,0,
22.0569,4.0153,0,
22.1774,4.0836,0,
22.2979,4.1540,0,
22.4184,4.2264,0,
22.5390,4.3004,0,
22.6595,4.3762,0,
22.7800,4.4538,0,
22.9006,4.5335,0,
23.0211,4.6156,0,
23.1416,4.6999,0,
23.2622,4.7859,0,
23.3827,4.8731,0,
23.5032,4.9607,0,
23.6238,5.0484,0,
23.7443,5.1360,0,
23.8648,5.2238,0,
23.9853,5.3121,0,
24.1059,5.4010,0,
24.2264,5.4909,0,
24.3469,5.5816,0,
24.4674,5.6731,0,
24.5880,5.7653,0,
24.7085,5.8578,0,
24.8290,5.9508,0,
24.9496,6.0442,0,
25.0701,6.2598,0,
25.1906,6.3457,0,
25.3112,6.4319,0,
25.4317,6.5182,0,
25.5522,6.6045,0,
25.6728,6.6913,0,
25.7933,6.7774,0,
25.9138,6.8629,0,
26.0343,6.9475,0,
26.1549,7.0327,0,
26.2754,7.1175,0,
26.3959,7.2019,0,
26.5164,7.2862,0,
26.6370,7.3715,0,
26.7575,7.4570,0,
26.8780,7.5427,0,
26.9986,7.6287,0,
27.1191,7.7168,0,
27.2396,7.8056,0,
27.3602,7.8954,0,
27.4807,7.9863,0,
27.6012,8.0799,0,
27.7218,8.1748,0,
27.8423,8.2710,0,
27.9628,8.3687,0,
28.4473,8.7359,0,
28.9294,9.1131,0,
29.4116,9.4997,0,
29.8937,9.8918,0,
30.3759,10.2889,0,
30.8580,10.6935,0,
31.3402,11.1107,0,
31.8224,11.5444,0,
32.3045,11.9940,0,
32.7867,12.4615,0,
33.2688,12.9510,0,
33.7510,13.4657,0,
34.2331,14.0034,0,
34.7153,14.5542,0,
35.1975,15.1255,0,
35.6796,15.7173,0,
36.1618,16.3298,0,
36.6439,16.9628,0,
37.1261,17.6161,0,
37.6082,18.2895,0,
38.0904,18.9834,0,
38.5726,19.6852,0,
39.0547,20.4099,0,
39.5369,21.1578,0,
40.0190,22.0490,0,
40.5012,22.8257,0,
40.9833,23.6298,0,
41.4655,24.4606,0,
41.9477,25.3156,0,
42.4298,26.1917,0,
42.9120,27.0828,0,
43.3941,27.9834,0,
43.8763,28.8928,0,
44.3584,29.8091,0,
44.8406,30.7286,0,
45.3227,31.5875,0,
45.8049,32.5384,0,
46.2871,33.4998,0,
46.7692,34.4727,0,
47.2514,35.4587,0,
47.7335,36.4603,0,
48.2157,37.4810,0,
48.6979,38.5212,0,
49.1800,39.5803,0,
49.6622,40.6539,0,
50.1443,41.7383,0,
50.6265,42.8361,0,
51.1086,43.9479,0,
51.5908,45.0712,0,
52.0729,46.2072,0,
52.5551,47.3546,0,
53.0373,48.5102,0,
53.5194,49.6747,0,
54.0016,50.8473,0,
54.4837,52.0273,0,
54.9659,53.2147,0,
55.4481,54.4080,0,
55.9302,55.6074,0,
56.4124,56.8133,0,
56.8945,58.0238,0,
57.3767,59.2411,0,
57.8588,60.4674,0,
58.3410,61.7020,0,
58.8231,62.9470,0,
59.3053,64.2025,0,
59.7875,65.4674,0,
60.2696,66.7454,0,
60.7518,68.0347,0,
61.2339,69.3298,0,
61.7161,70.6335,0,
62.1983,71.9453,0,
62.6804,73.2623,0,
63.1626,74.5873,0,
63.6447,75.9187,0,
64.1269,77.2523,0,
64.6090,78.5855,0,
65.0912,79.7886,0,
65.5734,81.1364,0,
66.0555,82.4928,0,
66.5377,83.8564,0,
67.0198,85.2271,0,
67.5020,86.6065,0,
67.9841,87.9954,0,
68.4663,89.3920,0,
68.9484,90.7939,0,
69.4306,92.1967,0,
69.9128,93.6026,0,
70.3949,95.3433,0,
70.8771,96.8429,0,
71.3592,98.3605,0,
71.8414,99.8972,0,
72.3235,101.4541,0,
72.8057,103.0346,0,
73.2879,104.6392,0,
73.7700,106.2704,0,
74.2522,107.9305,0,
74.7343,109.6166,0,
75.2165,111.3293,0,
75.6986,113.0685,0,
76.1808,114.8287,0,
76.6630,116.6066,0,
77.1451,118.3969,0,
77.6273,120.1906,0,
78.1094,121.9828,0,
78.5916,123.7657,0,
79.0737,125.5291,0,
79.5559,127.2687,0,
80.0380,128.9776,0,
80.5202,130.6507,0,
81.0024,132.2901,0,
81.4845,133.8941,0,
81.9667,135.4621,0,
82.4488,136.9994,0,
82.9310,138.5106,0,
83.4132,140.0040,0,
83.8953,141.4903,0,
84.3775,142.9764,0,
84.8596,144.4690,0,
85.3418,145.9734,0,
85.8239,147.4953,0,
86.3061,149.0439,0,
86.7883,150.6221,0,
87.2704,152.2294,0,
87.7526,153.8653,0,
88.2347,155.5226,0,
88.7169,157.1952,0,
89.1990,158.8823,0,
89.6812,160.5762,0,
90.1633,162.2658,0,
90.6455,163.9443,0,
91.1277,165.6036,0,
91.6098,167.2430,0,
92.0920,168.8722,0,
92.5741,170.4979,0,
93.0563,172.1218,0,
93.5384,173.7442,0,
94.0206,175.3686,0,
94.5028,177.0008,0,
94.9849,178.6395,0,
95.4671,180.2827,0,
95.9492,181.9330,0,
96.4314,183.5882,0,
96.9136,185.2444,0,
97.3957,186.8992,0,
97.8779,188.5494,0,
98.3600,190.1956,0,
98.8422,191.8385,0,
99.3243,193.4706,0,
99.8065,195.0877,0,
100.2887,196.6906,0,
100.7708,198.2781,0,
101.2530,199.8541,0,
101.7351,201.4217,0,
102.2173,202.9788,0,
102.6994,204.5281,0,
103.1816,206.0737,0,
103.6637,207.6164,0,
104.1459,209.1569,0,
104.6281,210.6925,0,
105.1102,212.2206,0,
105.5924,213.7464,0,
106.0745,215.2735,0,
106.5567,216.8047,0,
107.0388,218.3389,0,
107.5210,219.8696,0,
108.0032,221.3952,0,
108.4853,222.9153,0,
108.9675,224.4250,0,
109.4496,225.9259,0,
109.9318,227.4250,0,
110.4139,228.9214,0,
110.8961,230.4107,0,
111.3783,231.8892,0,
111.8604,233.3585,0,
112.3426,234.8264,0,
112.8247,236.2965,0,
113.3069,237.7710,0,
113.7890,239.2551,0,
114.2712,240.7464,0,
114.7533,242.2372,0,
115.2355,243.7245,0,
115.7177,245.2054,0,
116.1998,246.6815,0,
116.6820,248.1563,0,
117.1641,249.6227,0,
117.6463,251.0742,0,
118.1285,252.5154,0,
118.6106,253.9473,0,
119.0928,255.3653,0,
119.5749,256.7745,0,
120.0571,258.1866,0,
120.5392,259.6028,0,
121.0214,261.0246,0,
121.5036,262.4652,0,
121.9857,263.9293,0,
122.4679,265.4065,0,
122.9500,266.8981,0,
123.4322,268.4188,0,
123.9143,269.9754,0,
124.3965,271.5707,0,
124.8786,273.2065,0,
125.3608,274.3421,0,
125.8430,276.1406,0,
126.3251,277.9645,0,
126.8073,279.8030,0,
127.2894,281.6558,0,
127.7716,283.5195,0,
128.2537,285.3788,0,
128.7359,287.2280,0,
129.2181,289.0636,0,
129.7002,290.8822,0,
130.1824,292.9244,0,
130.6645,294.8716,0,
131.1467,296.8252,0,
131.6288,298.7875,0,
132.1110,300.7512,0,
132.5932,302.7179,0,
133.0753,304.6934,0,
133.5575,306.6681,0,
134.0396,308.6431,0,
134.5218,310.6213,0,
135.0040,312.5938,0,
135.4861,314.5654,0,
135.9683,316.5419,0,
136.4504,318.5153,0,
136.9326,320.4865,0,
137.4147,322.4587,0,
137.8969,324.4320,0,
138.3790,326.4124,0,
138.8612,328.3969,0,
139.3434,330.3817,0,
139.8255,332.3714,0,
140.3077,334.3614,0,
140.7898,336.3514,0,
141.2720,338.3455,0,
141.7541,340.3342,0,
142.2363,342.3162,0,
142.7185,344.2959,0,
143.2006,346.2661,0,
143.6828,348.2284,0,
144.1649,350.1850,0,
144.6471,352.1267,0,
145.1292,354.0544,0,
145.6114,355.9685,0,
146.0936,357.8670,0,
146.5757,359.7572,0,
147.0579,361.6395,0,
147.5400,363.5107,0,
148.0222,365.3796,0,
148.5043,367.2480,0,
148.9865,369.1155,0,
149.4686,370.9878,0,
149.9508,372.8629,0,
150.4330,374.7417,0,
150.9151,376.6288,0,
151.3973,378.5182,0,
151.8794,380.4103,0,
152.3616,382.3066,0,
152.8438,384.2003,0,
153.3259,386.0951,0,
153.8081,387.9928,0,
154.2902,389.8843,0,
154.7724,391.7724,0,
155.2545,393.6605,0,
155.7367,395.5451,0,
156.2189,397.4306,0,
156.7010,399.3183,0,
157.1832,401.2069,0,
157.6653,403.1021,0,
158.1475,405.0025,0,
158.6296,406.9072,0,
159.1118,408.8219,0,
159.5940,410.7447,0,
160.0761,412.6783,0,
160.5583,414.6280,0,
161.0404,416.5870,0,
161.5226,418.5571,0,
162.0047,420.5436,0,
162.4869,422.5407,0,
162.9691,424.5488,0,
163.4512,426.5683,0,
163.9334,428.5927,0,
164.4155,430.6265,0,
164.8977,432.6702,0,
165.3798,434.7182,0,
165.8620,436.7726,0,
166.3442,438.8304,0,
166.8263,440.8869,0,
167.3085,442.9443,0,
167.7906,444.9990,0,
168.2728,447.0511,0,
168.7549,449.1058,0,
169.2371,451.1577,0,
169.7192,453.2049,0,
170.2014,455.2499,0,
170.6836,457.2897,0,
171.1657,459.3271,0,
171.6479,461.3622,0,
172.1300,463.3893,0,
172.6122,465.4139,0,
173.0943,467.4382,0,
173.5765,469.4591,0,
174.0587,471.4822,0,
174.5408,473.5050,0,
175.0230,475.5243,0,
175.5051,477.5485,0,
175.9873,479.5788,0,
176.4694,481.6153,0,
176.9516,483.6621,0,
177.4338,485.7155,0,
177.9159,487.7776,0,
178.3981,489.8545,0,
178.8802,491.9427,0,
179.3624,494.0447,0,
179.8445,496.1628,0,
180.3267,498.2930,0,
180.8089,500.4392,0,
181.2910,502.5995,0,
181.7732,504.7678,0,
182.2553,506.9475,0,
182.7375,509.1332,0,
183.2196,511.3156,0,
183.7018,513.4994,0,
184.1840,515.6826,0,
184.6661,517.8595,0,
185.1483,520.0309,0,
185.6304,522.1913,0,
186.1126,524.3409,0,
186.5947,526.4860,0,
187.0769,528.6239,0,
187.5591,530.7562,0,
188.0412,532.8841,0,
188.5234,535.0047,0,
189.0055,537.1251,0,
189.4877,539.2469,0,
189.9698,541.3618,0,
190.4520,543.4727,0,
190.9341,545.5788,0,
191.4163,547.6766,0,
191.8985,549.7697,0,
192.3806,551.8521,0,
192.8628,553.9208,0,
193.3449,555.9843,0,
193.8271,558.0373,0,
194.3092,560.0748,0,
194.7914,562.1033,0,
195.2736,564.1190,0,
195.7557,566.1197,0,
196.2379,568.1077,0,
196.7200,570.0788,0,
197.2022,572.0348,0,
197.6843,573.9796,0,
198.1665,575.9136,0,
198.6487,577.8432,0,
199.1308,579.7692,0,
199.6130,581.6895,0,
200.0951,583.6116,0,
200.5773,585.5335,0,
201.0594,587.4546,0,
201.5416,589.3870,0,
202.0238,591.3303,0,
202.5059,593.2820,0,
202.9881,595.2487,0,
203.4702,597.2283,0,
203.9524,599.2226,0,
204.4346,601.2384,0,
204.9167,603.2720,0,
205.3989,605.3255,0,
205.8810,607.4014,0,
206.3632,609.4934,0,
206.8453,611.6015,0,
207.3275,613.7238,0,
207.8097,615.8505,0,
208.2918,617.9796,0,
208.7740,620.1047,0,
209.2561,622.2197,0,
209.7383,624.3272,0,
210.2204,626.4177,0,
210.7026,628.4825,0,
211.1847,630.5256,0,
211.6669,632.5429,0,
212.1491,634.5336,0,
212.6312,636.5048,0,
213.1134,638.4570,0,
213.5955,640.3977,0,
214.0777,642.3375,0,
214.5598,644.2758,0,
215.0420,646.2147,0,
215.5242,648.1575,0,
216.0063,650.1052,0,
216.4885,652.0625,0,
216.9706,654.0267,0,
217.4528,655.9937,0,
217.9349,657.9673,0,
218.4171,659.9390,0,
218.8993,661.8995,0,
219.3814,663.8516,0,
219.8636,665.7899,0,
220.3457,667.7112,0,
220.8279,669.6188,0,
221.3100,671.5044,0,
221.7922,673.3657,0,
222.2743,675.2107,0,
222.7565,677.0414,0,
223.2387,678.8614,0,
223.7208,680.6746,0,
224.2030,682.4801,0,
224.6851,684.2849,0,
225.1673,686.0913,0,
225.6495,687.8990,0,
226.1316,689.7155,0,
226.6138,691.5405,0,
227.0959,693.3722,0,
227.5781,695.2115,0,
228.0602,697.0472,0,
228.5424,698.8740,0,
229.0246,700.6946,0,
229.5067,702.5039,0,
229.9889,704.3064,0,
230.4710,706.1069,0,
230.9532,707.8960,0,
231.4353,709.6756,0,
231.9175,711.4542,0,
232.3997,713.2259,0,
232.8818,714.9888,0,
233.3640,716.7514,0,
233.8461,718.5232,0,
234.3283,720.3103,0,
234.8104,722.1104,0,
235.2926,723.9246,0,
235.7748,725.7588,0,
236.2569,727.6082,0,
236.7391,729.4732,0,
237.2212,731.3605,0,
237.7034,733.2640,0,
238.1855,735.1823,0,
238.6677,737.1180,0,
239.1498,739.0592,0,
239.6320,740.9994,0,
240.1142,742.9345,0,
240.5963,744.8511,0,
241.0785,746.7476,0,
241.5606,748.6231,0,
242.0428,750.4694,0,
242.5249,752.2874,0,
243.0071,754.0798,0,
243.4893,755.8505,0,
243.9714,757.6081,0,
244.4536,759.3511,0,
244.9357,761.0822,0,
245.4179,762.8111,0,
245.9000,764.5359,0,
246.3822,766.2585,0,
246.8644,767.9844,0,
247.3465,769.7139,0,
247.8287,771.4572,0,
248.3108,773.2200,0,
248.7930,774.9995,0,
249.2751,776.8089,0,
249.7573,778.6545,0,
250.2395,780.5210,0,
250.7216,782.3993,0,
251.2038,784.2871,0,
251.6859,786.1877,0,
252.1681,788.1153,0,
252.6502,790.0753,0,
253.1324,792.0637,0,
253.6146,794.0711,0,
254.0967,796.0836,0,
254.5789,798.1049,0,
255.0610,800.1427,0,
255.5432,802.1838,0,
256.0253,804.2295,0,
256.5075,806.2895,0,
256.9896,808.3501,0,
257.4718,810.3980,0,
257.9540,812.4364,0,
258.4361,814.4659,0,
258.9183,816.4779,0,
259.4004,818.4680,0,
259.8826,820.4366,0,
260.3648,822.3845,0,
260.8469,824.3160,0,
261.3291,826.2409,0,
261.8112,828.1684,0,
262.2934,830.1129,0,
262.7755,832.0926,0,
263.2577,834.1137,0,
263.7398,836.1704,0,
264.2220,838.2686,0,
264.7042,840.4098,0,
265.1863,842.5869,0,
265.6685,844.8084,0,
266.1506,847.0728,0,
266.6328,849.3583,0,
267.1150,851.6560,0,
267.5971,853.9700,0,
268.0793,856.3108,0,
268.5614,858.6893,0,
269.0436,861.1028,0,
269.5257,863.5405,0,
270.0079,873.3344,0,
270.4900,875.8298,0,
270.9722,878.3356,0,
271.4544,880.8868,0,
271.9365,883.4458,0,
272.4187,885.9118,0,
272.9008,888.3705,0,
273.3830,889.9908,0,
273.8652,891.6152,0,
274.3473,892.9452,0,
274.8295,894.2804,0,
275.3116,896.3328,0,
275.7938,898.4010,0,
276.2759,900.8388,0,
276.7581,903.2650,0,
277.2403,905.4864,0,
277.7224,907.6971,0,
278.2046,909.7461,0,
278.6867,911.7804,0,
279.1689,913.8897,0,
279.6510,915.9913,0,
280.6153,919.9009,0,
281.5797,924.9902,0,
282.5440,929.8670,0,
283.5083,933.2211,0,
284.4726,935.8637,0,
285.4369,938.9741,0,
286.4012,941.8333,0,
287.3655,945.2923,0,
288.3299,951.6377,0,
289.2942,958.4276,0,
290.2585,961.0113,0,
291.2228,962.5532,0,
292.1871,967.9758,0,
293.1514,974.2089,0,
294.1157,977.1373,0,
295.0801,979.2514,0,
296.0444,983.5154,0,
297.0087,988.0311,0,
297.9730,990.8804,0,
298.9373,993.3614,0,
299.9016,996.1943,0,
300.8659,998.7915,0,
301.8302,997.4326,0,
302.7946,1000.0224,0,
303.7589,1002.5711,0,
304.7232,1005.0836,0,
305.6875,1007.5647,0,
306.6518,1010.0194,0,
307.6161,1012.4525,0,
308.5804,1014.8689,0,
309.5448,1017.2735,0,
310.5091,1019.6711,0,
311.4734,1022.0666,0,
312.4377,1024.4649,0,
313.4020,1026.8709,0,
314.3663,1025.2634,0,
315.3306,1029.1702,0,
316.2950,1035.0636,0,
317.2593,1037.9778,0,
318.2236,1038.6384,0,
319.1879,1041.2288,0,
320.1522,1045.1505,0,
321.1165,1047.0321,0,
322.0808,1048.6667,0,
323.0452,1052.6917,0,
324.0095,1055.9474,0,
324.9738,1056.5604,0,
325.9381,1059.6012,0,
326.9024,1067.0766,0,
327.8667,1072.6164,0,
328.8310,1073.0955,0,
329.7953,1074.9003,0,
330.7597,1080.4697,0,
331.7240,1083.8442,0,
332.6883,1084.6677,0,
333.6526,1088.9347,0,
334.6169,1094.5003,0,
335.5812,1095.6731,0,
336.5455,1095.7018,0,
337.5099,1099.6277,0,
338.4742,1105.2915,0,
339.4385,1109.2431,0,
340.4028,1112.4236,0,
341.3671,1116.2493,0,
342.3314,1118.6599,0,
343.2957,1118.7181,0,
344.2601,1119.4741,0,
345.2244,1122.6767,0,
346.1887,1126.1201,0,
347.1530,1128.5469,0,
348.1173,1132.4734,0,
349.0816,1137.6171,0,
350.0460,1140.2694,0,
351.0103,1141.6564,0,
351.9746,1145.1740,0,
352.9389,1149.5012,0,
353.9032,1151.9371,0,
354.8675,1153.9602,0,
355.8318,1157.8655,0,
356.7961,1161.0929,0,
357.7605,1161.6015,0,
358.7248,1163.3083,0,
359.6891,1168.4105,0,
360.6534,1172.3543,0,
361.6177,1172.4749,0,
362.5820,1171.8118,0,
363.5463,1172.6859,0,
364.5107,1174.1339,0,
365.4750,1176.6411,0,
366.4393,1181.0012,0,
367.4036,1183.9150,0,
368.3679,1184.4924,0,
369.3322,1186.2868,0,
370.2965,1189.4855,0,
371.2609,1191.6830,0,
372.2252,1192.9052,0,
373.1895,1194.5875,0,
374.1538,1196.9151,0,
375.1181,1198.8781,0,
376.0824,1199.8913,0,
377.0467,1201.0589,0,
378.0111,1203.2737,0,
378.9754,1205.5227,0,
379.9397,1207.0650,0,
380.9040,1209.0416,0,
381.8683,1212.0734,0,
382.8326,1214.7701,0,
383.7969,1216.2600,0,
384.7613,1217.4096,0,
385.7256,1218.4978,0,
386.6899,1219.1511,0,
387.6542,1220.0538,0,
388.6185,1222.0478,0,
389.5828,1224.4818,0,
390.5471,1226.2317,0,
391.5114,1227.5142,0,
392.4758,1229.8631,0,
393.4401,1233.1894,0,
394.4044,1235.5788,0,
395.3687,1237.3105,0,
396.3330,1239.8960,0,
397.2973,1242.3279,0,
398.2616,1243.1184,0,
399.2260,1243.2765,0,
400.1903,1244.4157,0,
401.1546,1245.9993,0,
402.1189,1246.7600,0,
403.0832,1246.9185,0,
404.0475,1247.4260,0,
405.0118,1248.0288,0,
405.9762,1248.1557,0,
406.9405,1248.4096,0,
407.9048,1249.3939,0,
408.8691,1250.5696,0,
409.8334,1251.3963,0,
410.7977,1252.2234,0,
411.7620,1253.4650,0,
412.7264,1254.5802,0,
413.6907,1255.0903,0,
414.6550,1255.8238,0,
415.6193,1257.1962,0,
416.5836,1258.3461,0,
417.5479,1259.0813,0,
418.5122,1260.4887,0,
419.4765,1261.9935,0,
420.4409,1261.9615,0,
421.4052,1261.0008,0,
422.3695,1260.7767,0,
423.3338,1260.7447,0,
424.2981,1260.1687,0,
425.2624,1259.2411,0,
426.2267,1258.3781,0,
427.1911,1257.4516,0,
428.1554,1255.6962,0,
429.1197,1253.4650,0,
430.0840,1252.0007,0,
431.0483,1250.9828,0,
432.0126,1249.1716,0,
432.9769,1246.7600,0,
433.9413,1244.7639,0,
434.9056,1242.8654,0,
435.8699,1240.4325,0,
436.8342,1238.0352,0,
437.7985,1236.0194,0,
438.7628,1233.8806,0,
439.7271,1231.2429,0,
440.6914,1228.5473,0,
441.6558,1226.3255,0,
442.6201,1224.3256,0,
443.5844,1221.9231,0,
444.5487,1219.4623,0,
445.5130,1217.5650,0,
446.4773,1215.4838,0,
447.4416,1212.5999,0,
448.4060,1209.7526,0,
449.3703,1207.4972,0,
450.3346,1205.2452,0,
451.2989,1202.6889,0,
452.2632,1200.3828,0,
453.2275,1198.4178,0,
454.1918,1196.1797,0,
455.1562,1193.6696,0,
456.1205,1191.7441,0,
457.0848,1190.4923,0,
458.0491,1188.5099,0,
459.0134,1185.6478,0,
459.9777,1183.1556,0,
460.9420,1181.0315,0,
461.9064,1178.3957,0,
462.8707,1175.4927,0,
463.8350,1173.2589,0,
464.7993,1171.6310,0,
465.7636,1169.5534,0,
466.7279,1166.8179,0,
467.6922,1164.4773,0,
468.6566,1162.5894,0,
469.6209,1160.3750,0,
470.5852,1158.0446,0,
471.5495,1156.4631,0,
472.5138,1154.9728,0,
473.4781,1152.4426,0,
474.4424,1149.6793,0,
475.4067,1147.6620,0,
476.3711,1145.8844,0,
477.3354,1143.7541,0,
478.2997,1141.6859,0,
479.2640,1140.1219,0,
480.2283,1138.4123,0,
481.1926,1135.9986,0,
482.1569,1133.6475,0,
483.1213,1132.3561,0,
484.0856,1131.5055,0,
485.0499,1129.9229,0,
486.0142,1128.4006,0,
486.9785,1127.8448,0,
487.9428,1127.6401,0,
488.9072,1127.3476,0,
489.8715,1127.5231,0,
490.8358,1128.2543,0,
491.8001,1128.9567,0,
492.7644,1129.4544,0,
493.7287,1130.7140,0,
494.6930,1132.9723,0,
495.6574,1135.1165,0,
496.6217,1136.6458,0,
497.5860,1138.6185,0,
498.5503,1141.5973,0,
499.5146,1144.7597,0,
500.4789,1147.4842,0,
501.4432,1150.4513,0,
502.4075,1153.7816,0,
503.3719,1156.7614,0,
504.3362,1159.7174,0,
505.3005,1163.5480,0,
506.2648,1167.5689,0,
507.2291,1170.4262,0,
508.1934,1172.3241,0,
509.1577,1174.5867,0,
510.1221,1177.4274,0,
511.0864,1179.9705,0,
512.0507,1182.0021,0,
513.0150,1184.4012,0,
513.9793,1187.4132,0,
514.9436,1190.3397,0,
515.9079,1192.8747,0,
516.8723,1195.4446,0,
517.8366,1197.9270,0,
518.8009,1199.8299,0,
519.7652,1202.0736,0,
520.7295,1205.8618,0,
521.6938,1209.3816,0,
522.6581,1210.6805,0,
523.6224,1211.7947,0,
524.5868,1214.4909,0,
525.5511,1217.3163,0,
526.5154,1219.1822,0,
527.4797,1220.8947,0,
528.4440,1222.9835,0,
529.4083,1224.9503,0,
530.3727,1226.5757,0,
531.3370,1228.1402,0,
532.3013,1229.8631,0,
533.2656,1231.4312,0,
534.2299,1232.4670,0,
535.1942,1233.3779,0,
536.1585,1234.6351,0,
537.1228,1235.7362,0,
538.0872,1236.1768,0,
539.0515,1236.3657,0,
540.0158,1236.8695,0,
540.9801,1237.2160,0,
541.9444,1236.9955,0,
542.9087,1236.9010,0,
543.8730,1237.4365,0,
544.8374,1237.7831,0,
545.8017,1237.5625,0,
546.7660,1237.2160,0,
547.7303,1236.6490,0,
548.6946,1235.5474,0,
549.6589,1234.1950,0,
550.6232,1233.0951,0,
551.5875,1232.3728,0,
552.5519,1231.3998,0,
553.5162,1229.8631,0,
554.4805,1228.2968,0,
555.4448,1226.7008,0,
556.4091,1224.7316,0,
557.3734,1222.9523,0,
558.3378,1221.6738,0,
559.3021,1219.9292,0,
560.2664,1217.2852,0,
561.2307,1214.6460,0,
562.1950,1212.4141,0,
563.1593,1210.1237,0,
564.1236,1207.4354,0,
565.0879,1204.5672,0,
566.0523,1202.0121,0,
